Time,Voltage,Current_L,Current_R,Current_C,Power_R,Power_Total
      0.00000000,      0.00000000,      0.00000000,      0.00000000,      0.00000000,      0.00000000,      0.00000000,
      0.00020000,      0.00047968,      0.00479997,      0.00000480,      0.00479517,      0.00000000,      0.11519923,
      0.00040000,      0.00191742,      0.00959974,      0.00001917,      0.00958057,      0.00000004,      0.23039386,
      0.00060000,      0.00431124,      0.01439914,      0.00004311,      0.01435602,      0.00000019,      0.34557930,
      0.00080000,      0.00765915,      0.01919796,      0.00007659,      0.01912136,      0.00000059,      0.46075095,
      0.00100000,      0.01195910,      0.02399601,      0.00011959,      0.02387642,      0.00000143,      0.57590424,
      0.00120000,      0.01720902,      0.02879311,      0.00017209,      0.02862102,      0.00000296,      0.69103462,
      0.00140000,      0.02340680,      0.03358906,      0.00023407,      0.03335500,      0.00000548,      0.80613752,
      0.00160000,      0.03055030,      0.03838368,      0.00030550,      0.03807818,      0.00000933,      0.92120840,
      0.00180000,      0.03863734,      0.04317678,      0.00038637,      0.04279041,      0.00001493,      1.03624273,
      0.00200000,      0.04766572,      0.04796817,      0.00047666,      0.04749151,      0.00002272,      1.15123598,
      0.00220000,      0.05763320,      0.05275765,      0.00057633,      0.05218132,      0.00003322,      1.26618364,
      0.00240000,      0.06853749,      0.05754505,      0.00068537,      0.05685968,      0.00004697,      1.38108120,
      0.00260000,      0.08037629,      0.06233017,      0.00080376,      0.06152641,      0.00006460,      1.49592418,
      0.00280000,      0.09314727,      0.06711284,      0.00093147,      0.06618136,      0.00008676,      1.61070810,
      0.00300000,      0.10684804,      0.07189285,      0.00106848,      0.07082437,      0.00011417,      1.72542848,
      0.00320000,      0.12147621,      0.07667004,      0.00121476,      0.07545527,      0.00014756,      1.84008087,
      0.00340000,      0.13702933,      0.08144420,      0.00137029,      0.08007391,      0.00018777,      1.95466083,
      0.00360000,      0.15350494,      0.08621516,      0.00153505,      0.08468011,      0.00023564,      2.06916391,
      0.00380000,      0.17090054,      0.09098274,      0.00170901,      0.08927373,      0.00029207,      2.18358571,
      0.00400000,      0.18921359,      0.09574674,      0.00189214,      0.09385461,      0.00035802,      2.29792180,
      0.00420000,      0.20844152,      0.10050699,      0.00208442,      0.09842258,      0.00043448,      2.41216779,
      0.00440000,      0.22858175,      0.10526330,      0.00228582,      0.10297749,      0.00052250,      2.52631930,
      0.00460000,      0.24963163,      0.11001550,      0.00249632,      0.10751918,      0.00062316,      2.64037195,
      0.00480000,      0.27158853,      0.11476339,      0.00271589,      0.11204751,      0.00073760,      2.75432139,
      0.00500000,      0.29444974,      0.11950680,      0.00294450,      0.11656231,      0.00086701,      2.86816326,
      0.00520000,      0.31821254,      0.12424555,      0.00318213,      0.12106343,      0.00101259,      2.98189323,
      0.00540000,      0.34287418,      0.12897946,      0.00342874,      0.12555072,      0.00117563,      3.09550698,
      0.00560000,      0.36843189,      0.13370834,      0.00368432,      0.13002402,      0.00135742,      3.20900020,
      0.00580000,      0.39488285,      0.13843203,      0.00394883,      0.13448320,      0.00155932,      3.32236860,
      0.00600000,      0.42222422,      0.14315033,      0.00422224,      0.13892809,      0.00178273,      3.43560790,
      0.00620000,      0.45045312,      0.14786308,      0.00450453,      0.14335855,      0.00202908,      3.54871383,
      0.00640000,      0.47956666,      0.15257009,      0.00479567,      0.14777442,      0.00229984,      3.66168214,
      0.00660000,      0.50956191,      0.15727119,      0.00509562,      0.15217557,      0.00259653,      3.77450858,
      0.00680000,      0.54043590,      0.16196621,      0.00540436,      0.15656185,      0.00292071,      3.88718894,
      0.00700000,      0.57218565,      0.16665496,      0.00572186,      0.16093310,      0.00327396,      3.99971899,
      0.00720000,      0.60480813,      0.17133727,      0.00604808,      0.16528919,      0.00365793,      4.11209456,
      0.00740000,      0.63830030,      0.17601298,      0.00638300,      0.16962997,      0.00407427,      4.22431144,
      0.00760000,      0.67265909,      0.18068190,      0.00672659,      0.17395530,      0.00452470,      4.33636549,
      0.00780000,      0.70788139,      0.18534386,      0.00707881,      0.17826504,      0.00501096,      4.44825254,
      0.00800000,      0.74396406,      0.18999869,      0.00743964,      0.18255904,      0.00553483,      4.55996845,
      0.00820000,      0.78090395,      0.19464621,      0.00780904,      0.18683717,      0.00609811,      4.67150911,
      0.00840000,      0.81869786,      0.19928627,      0.00818698,      0.19109929,      0.00670266,      4.78287040,
      0.00860000,      0.85734258,      0.20391868,      0.00857343,      0.19534525,      0.00735036,      4.89404825,
      0.00880000,      0.89683488,      0.20854327,      0.00896835,      0.19957492,      0.00804313,      5.00503856,
      0.00900000,      0.93717146,      0.21315989,      0.00937171,      0.20378817,      0.00878290,      5.11583728,
      0.00920000,      0.97834904,      0.21776835,      0.00978349,      0.20798486,      0.00957167,      5.22644037,
      0.00940000,      1.02036429,      0.22236849,      0.01020364,      0.21216485,      0.01041143,      5.33684379,
      0.00960000,      1.06321386,      0.22696015,      0.01063214,      0.21632801,      0.01130424,      5.44704354,
      0.00980000,      1.10689436,      0.23154315,      0.01106894,      0.22047421,      0.01225215,      5.55703561,
      0.01000000,      1.15140240,      0.23611733,      0.01151402,      0.22460331,      0.01325727,      5.66681603,
      0.01020000,      1.19673454,      0.24068253,      0.01196735,      0.22871519,      0.01432174,      5.77638083,
      0.01040000,      1.24288732,      0.24523859,      0.01242887,      0.23280971,      0.01544769,      5.88572606,
      0.01060000,      1.28985726,      0.24978533,      0.01289857,      0.23688675,      0.01663732,      5.99484780,
      0.01080000,      1.33764085,      0.25432259,      0.01337641,      0.24094618,      0.01789283,      6.10374213,
      0.01100000,      1.38623455,      0.25885021,      0.01386235,      0.24498787,      0.01921646,      6.21240515,
      0.01120000,      1.43563480,      0.26336804,      0.01435635,      0.24901169,      0.02061047,      6.32083299,
      0.01140000,      1.48583802,      0.26787591,      0.01485838,      0.25301753,      0.02207715,      6.42902177,
      0.01160000,      1.53684060,      0.27237365,      0.01536841,      0.25700525,      0.02361879,      6.53696766,
      0.01180000,      1.58863891,      0.27686112,      0.01588639,      0.26097473,      0.02523774,      6.64466683,
      0.01200000,      1.64122927,      0.28133814,      0.01641229,      0.26492585,      0.02693634,      6.75211546,
      0.01220000,      1.69460802,      0.28580457,      0.01694608,      0.26885849,      0.02871696,      6.85930977,
      0.01240000,      1.74877143,      0.29026025,      0.01748771,      0.27277253,      0.03058202,      6.96624597,
      0.01260000,      1.80371578,      0.29470501,      0.01803716,      0.27666786,      0.03253391,      7.07292031,
      0.01280000,      1.85943732,      0.29913871,      0.01859437,      0.28054434,      0.03457507,      7.17932906,
      0.01300000,      1.91593225,      0.30356119,      0.01915932,      0.28440186,      0.03670796,      7.28546848,
      0.01320000,      1.97319679,      0.30797229,      0.01973197,      0.28824032,      0.03893506,      7.39133487,
      0.01340000,      2.03122710,      0.31237186,      0.02031227,      0.29205959,      0.04125884,      7.49692456,
      0.01360000,      2.09001934,      0.31675974,      0.02090019,      0.29585955,      0.04368181,      7.60223388,
      0.01380000,      2.14956963,      0.32113580,      0.02149570,      0.29964010,      0.04620650,      7.70725917,
      0.01400000,      2.20987408,      0.32549987,      0.02209874,      0.30340113,      0.04883543,      7.81199680,
      0.01420000,      2.27092877,      0.32985180,      0.02270929,      0.30714251,      0.05157117,      7.91644318,
      0.01440000,      2.33272977,      0.33419145,      0.02332730,      0.31086415,      0.05441628,      8.02059469,
      0.01460000,      2.39527311,      0.33851866,      0.02395273,      0.31456593,      0.05737333,      8.12444778,
      0.01480000,      2.45855481,      0.34283329,      0.02458555,      0.31824774,      0.06044492,      8.22799889,
      0.01500000,      2.52257086,      0.34713519,      0.02522571,      0.32190948,      0.06363364,      8.33124448,
      0.01520000,      2.58731725,      0.35142421,      0.02587317,      0.32555104,      0.06694211,      8.43418104,
      0.01540000,      2.65278992,      0.35570021,      0.02652790,      0.32917231,      0.07037294,      8.53680507,
      0.01560000,      2.71898482,      0.35996305,      0.02718985,      0.33277320,      0.07392878,      8.63911310,
      0.01580000,      2.78589784,      0.36421257,      0.02785898,      0.33635359,      0.07761227,      8.74110167,
      0.01600000,      2.85352488,      0.36844864,      0.02853525,      0.33991339,      0.08142604,      8.84276734,
      0.01620000,      2.92186182,      0.37267111,      0.02921862,      0.34345249,      0.08537276,      8.94410670,
      0.01640000,      2.99090449,      0.37687985,      0.02990904,      0.34697080,      0.08945510,      9.04511634,
      0.01660000,      3.06064874,      0.38107470,      0.03060649,      0.35046822,      0.09367571,      9.14579289,
      0.01680000,      3.13109038,      0.38525554,      0.03131090,      0.35394464,      0.09803727,      9.24613299,
      0.01700000,      3.20222519,      0.38942222,      0.03202225,      0.35739997,      0.10254246,      9.34613331,
      0.01720000,      3.27404895,      0.39357461,      0.03274049,      0.36083412,      0.10719397,      9.44579053,
      0.01740000,      3.34655742,      0.39771256,      0.03346557,      0.36424698,      0.11199447,      9.54510135,
      0.01760000,      3.41974632,      0.40183594,      0.03419746,      0.36763847,      0.11694665,      9.64406249,
      0.01780000,      3.49361138,      0.40594461,      0.03493611,      0.37100850,      0.12205320,      9.74267070,
      0.01800000,      3.56814829,      0.41003845,      0.03568148,      0.37435696,      0.12731682,      9.84092275,
      0.01820000,      3.64335273,      0.41411731,      0.03643353,      0.37768378,      0.13274019,      9.93881541,
      0.01840000,      3.71922035,      0.41818106,      0.03719220,      0.38098886,      0.13832600,     10.03634550,
      0.01860000,      3.79574681,      0.42222958,      0.03795747,      0.38427211,      0.14407694,     10.13350984,
      0.01880000,      3.87292773,      0.42626272,      0.03872928,      0.38753344,      0.14999569,     10.23030528,
      0.01900000,      3.95075872,      0.43028036,      0.03950759,      0.39077277,      0.15608494,     10.32672869,
      0.01920000,      4.02923537,      0.43428237,      0.04029235,      0.39399002,      0.16234738,     10.42277696,
      0.01940000,      4.10835325,      0.43826863,      0.04108353,      0.39718509,      0.16878566,     10.51844701,
      0.01960000,      4.18810792,      0.44223899,      0.04188108,      0.40035791,      0.17540248,     10.61373575,
      0.01980000,      4.26849493,      0.44619334,      0.04268495,      0.40350839,      0.18220049,     10.70864016,
      0.02000000,      4.34950979,      0.45013155,      0.04349510,      0.40663645,      0.18918235,     10.80315720,
      0.02020000,      4.43114801,      0.45405349,      0.04431148,      0.40974201,      0.19635073,     10.89728387,
      0.02040000,      4.51340509,      0.45795905,      0.04513405,      0.41282500,      0.20370825,     10.99101719,
      0.02060000,      4.59627650,      0.46184809,      0.04596276,      0.41588533,      0.21125758,     11.08435420,
      0.02080000,      4.67975770,      0.46572050,      0.04679758,      0.41892292,      0.21900132,     11.17729196,
      0.02100000,      4.76384414,      0.46957615,      0.04763844,      0.42193771,      0.22694211,     11.26982755,
      0.02120000,      4.84853125,      0.47341492,      0.04848531,      0.42492961,      0.23508255,     11.36195809,
      0.02140000,      4.93381445,      0.47723670,      0.04933814,      0.42789855,      0.24342525,     11.45368070,
      0.02160000,      5.01968914,      0.48104136,      0.05019689,      0.43084446,      0.25197279,     11.54499253,
      0.02180000,      5.10615070,      0.48482878,      0.05106151,      0.43376727,      0.26072775,     11.63589075,
      0.02200000,      5.19319451,      0.48859886,      0.05193195,      0.43666691,      0.26969269,     11.72637255,
      0.02220000,      5.28081592,      0.49235146,      0.05280816,      0.43954331,      0.27887017,     11.81643516,
      0.02240000,      5.36901028,      0.49608649,      0.05369010,      0.44239639,      0.28826271,     11.90607580,
      0.02260000,      5.45777292,      0.49980382,      0.05457773,      0.44522609,      0.29787285,     11.99529175,
      0.02280000,      5.54709915,      0.50350334,      0.05547099,      0.44803235,      0.30770309,     12.08408028,
      0.02300000,      5.63698429,      0.50718495,      0.05636984,      0.45081510,      0.31775592,     12.17243870,
      0.02320000,      5.72742362,      0.51084851,      0.05727424,      0.45357428,      0.32803381,     12.26036434,
      0.02340000,      5.81841242,      0.51449394,      0.05818412,      0.45630982,      0.33853923,     12.34785455,
      0.02360000,      5.90994596,      0.51812111,      0.05909946,      0.45902165,      0.34927461,     12.43490671,
      0.02380000,      6.00201950,      0.52172993,      0.06002020,      0.46170973,      0.36024238,     12.52151821,
      0.02400000,      6.09462827,      0.52532027,      0.06094628,      0.46437399,      0.37144494,     12.60768647,
      0.02420000,      6.18776751,      0.52889204,      0.06187768,      0.46701436,      0.38288467,     12.69340893,
      0.02440000,      6.28143243,      0.53244513,      0.06281432,      0.46963080,      0.39456393,     12.77868306,
      0.02460000,      6.37561823,      0.53597943,      0.06375618,      0.47222325,      0.40648508,     12.86350635,
      0.02480000,      6.47032012,      0.53949485,      0.06470320,      0.47479164,      0.41865042,     12.94787630,
      0.02500000,      6.56553328,      0.54299127,      0.06565533,      0.47733594,      0.43106227,     13.03179045,
      0.02520000,      6.66125288,      0.54646860,      0.06661253,      0.47985607,      0.44372290,     13.11524637,
      0.02540000,      6.75747409,      0.54992673,      0.06757474,      0.48235199,      0.45663456,     13.19824162,
      0.02560000,      6.85419206,      0.55336558,      0.06854192,      0.48482366,      0.46979949,     13.28077382,
      0.02580000,      6.95140193,      0.55678502,      0.06951402,      0.48727101,      0.48321989,     13.36284059,
      0.02600000,      7.04909884,      0.56018498,      0.07049099,      0.48969399,      0.49689794,     13.44443958,
      0.02620000,      7.14727790,      0.56356535,      0.07147278,      0.49209257,      0.51083581,     13.52556847,
      0.02640000,      7.24593424,      0.56692604,      0.07245934,      0.49446670,      0.52503563,     13.60622495,
      0.02660000,      7.34506296,      0.57026695,      0.07345063,      0.49681632,      0.53949950,     13.68640675,
      0.02680000,      7.44465914,      0.57358798,      0.07444659,      0.49914139,      0.55422950,     13.76611160,
      0.02700000,      7.54471787,      0.57688905,      0.07544718,      0.50144187,      0.56922768,     13.84533728,
      0.02720000,      7.64523424,      0.58017007,      0.07645234,      0.50371772,      0.58449607,     13.92408158,
      0.02740000,      7.74620331,      0.58343093,      0.07746203,      0.50596890,      0.60003666,     14.00234231,
      0.02760000,      7.84762015,      0.58667155,      0.07847620,      0.50819535,      0.61585142,     14.08011731,
      0.02780000,      7.94947980,      0.58989185,      0.07949480,      0.51039705,      0.63194229,     14.15740444,
      0.02800000,      8.05177731,      0.59309173,      0.08051777,      0.51257396,      0.64831118,     14.23420160,
      0.02820000,      8.15450772,      0.59627111,      0.08154508,      0.51472603,      0.66495996,     14.31050669,
      0.02840000,      8.25766607,      0.59942990,      0.08257666,      0.51685324,      0.68189049,     14.38631764,
      0.02860000,      8.36124737,      0.60256802,      0.08361247,      0.51895554,      0.69910458,     14.46163242,
      0.02880000,      8.46524664,      0.60568537,      0.08465247,      0.52103291,      0.71660401,     14.53644900,
      0.02900000,      8.56965888,      0.60878189,      0.08569659,      0.52308530,      0.73439053,     14.61076539,
      0.02920000,      8.67447909,      0.61185748,      0.08674479,      0.52511269,      0.75246588,     14.68457962,
      0.02940000,      8.77970228,      0.61491207,      0.08779702,      0.52711505,      0.77083172,     14.75788975,
      0.02960000,      8.88532344,      0.61794558,      0.08885323,      0.52909234,      0.78948973,     14.83069384,
      0.02980000,      8.99133754,      0.62095792,      0.08991338,      0.53104454,      0.80844151,     14.90299001,
      0.03000000,      9.09773957,      0.62394902,      0.09097740,      0.53297162,      0.82768865,     14.97477638,
      0.03020000,      9.20452451,      0.62691880,      0.09204525,      0.53487355,      0.84723271,     15.04605110,
      0.03040000,      9.31168731,      0.62986718,      0.09311687,      0.53675031,      0.86707521,     15.11681234,
      0.03060000,      9.41922295,      0.63279410,      0.09419223,      0.53860187,      0.88721761,     15.18705830,
      0.03080000,      9.52712638,      0.63569947,      0.09527126,      0.54042820,      0.90766137,     15.25678721,
      0.03100000,      9.63539255,      0.63858322,      0.09635393,      0.54222930,      0.92840790,     15.32599731,
      0.03120000,      9.74401642,      0.64144529,      0.09744016,      0.54400512,      0.94945856,     15.39468687,
      0.03140000,      9.85299293,      0.64428559,      0.09852993,      0.54575566,      0.97081470,     15.46285419,
      0.03160000,      9.96231701,      0.64710407,      0.09962317,      0.54748090,      0.99247760,     15.53049758,
      0.03180000,     10.07198360,      0.64990064,      0.10071984,      0.54918081,      1.01444854,     15.59761540,
      0.03200000,     10.18198764,      0.65267525,      0.10181988,      0.55085537,      1.03672872,     15.66420600,
      0.03220000,     10.29232405,      0.65542782,      0.10292324,      0.55250458,      1.05931934,     15.73026778,
      0.03240000,     10.40298777,      0.65815830,      0.10402988,      0.55412842,      1.08222155,     15.79579916,
      0.03260000,     10.51397372,      0.66086661,      0.10513974,      0.55572687,      1.10543643,     15.86079858,
      0.03280000,     10.62527682,      0.66355269,      0.10625277,      0.55729992,      1.12896507,     15.92526451,
      0.03300000,     10.73689199,      0.66621648,      0.10736892,      0.55884756,      1.15280850,     15.98919543,
